wavelength,l_mean_absorbance,l_serine_absorbance,l_hybrid_absorbance
390,0.14327628651623106,0.14414269627431042,0.13680871847036613
391,0.1420732865616997,0.14296919085599108,0.1358520263822941
392,0.14084116889358395,0.141763492615203,0.13486640410096098
393,0.13958384268037727,0.14052929364405561,0.13384834000276208
394,0.13830542225627698,0.1392705275907722,0.1327956287753354
395,0.13701018217331096,0.13799132477126752,0.13170737110208616
396,0.13570251310458903,0.13669596742261542,0.13058393831332243
397,0.1343868793718429,0.13538884596152972,0.12942690715403474
398,0.13306777874996462,0.13407441699428446,0.1282389699058953
399,0.1317497050802785,0.1327571637045046,0.12702382512894875
400,0.13043711410572773,0.13144155912541314,0.12578605421528605
401,0.12913439282747602,0.13013203268569454,0.12453098876188617
402,0.12784583257636395,0.1288329403066982,0.12326457346208305
403,0.12657560589538575,0.12754853822441126,0.12199322879896557
404,0.12532774724272844,0.12628296061500674,0.12072371731252746
405,0.12410613744940453,0.12504020101845942,0.11946301663706912
406,0.1229144918017302,0.1238240974818011,0.11821820188476219
407,0.12175635156676982,0.12263832128240731,0.11699633932442652
408,0.12063507873799893,0.12148636904179805,0.1158043926877371
409,0.11955385374830783,0.1203715580019817,0.11464914286043705
410,0.11851567587721555,0.11929702420821338,0.11353712119467799
411,0.11752336606763075,0.11826572332358123,0.11247455622769055
412,0.11657957186391449,0.11728043379098295,0.11146733321860629
413,0.1156867741859035,0.11634376205571668,0.11052096562027917
414,0.11484729566197692,0.11545814956590805,0.1096405773876897
415,0.11406331025713781,0.11462588127732433,0.10883089488221347
416,0.11333685394822358,0.11384909540256151,0.10809624705473155
417,0.11266983621697098,0.11312979416118055,0.10744057257173274
418,0.11206405215187164,0.11246985530630653,0.10686743257708904
419,0.11152119497069031,0.11187104422333119,0.10638002784777989
420,0.11104286879675225,0.11133502641748777,0.10598121919514158
421,0.11063060154290166,0.11086338022789383,0.1056735500759581
422,0.11028585777724163,0.11045760962658996,0.10545927050169768
423,0.11001005146364107,0.11011915698055082,0.10534036146269916
424,0.109804558487868,0.10984941567374361,0.10531855921241906
425,0.10967072889630779,0.10964974250336541,0.1053953788807488
426,0.10960989878890545,0.10952146978040407,0.10557213700219835
427,0.10962340182102354,0.10946591707895043,0.10584997265081887
428,0.10971258028017465,0.10948440259126611,0.10622986697089705
429,0.1098787957134552,0.10957825405672222,0.10671266097684874
430,0.1101234390896913,0.1097488192421773,0.10729907156969881
431,0.11044794048705903,0.10999747595926052,0.10798970578028437
432,0.11085377830236252,0.11032564161055101,0.10878507330153733
433,0.11134248798231597,0.11073478226191825,0.1096855974149403
434,0.11191567028006881,0.11122642124202657,0.11069162444986666
435,0.11257499904222826,0.11180214727298633,0.11180343194089466
436,0.11332222853258368,0.11246362213789879,0.11302123566529326
437,0.11415920029885339,0.11321258789179493,0.11434519575702583
438,0.11508784958819317,0.11405087362261854,0.11577542209746605
439,0.11611021131598778,0.11498040176831169,0.11731197918636235
440,0.11722842559051351,0.11600319399448178,0.11895489069150912
441,0.11844474279384708,0.11712137663559807,0.1207041438689078
442,0.11976152821659784,0.11833718570009791,0.12255969403400162
443,0.12118126624093659,0.11965297143710393,0.1245214692494162
444,0.1227065640631013,0.121071202459518,0.12658937537904053
445,0.12434015494274099,0.12259446941454145,0.12876330163725302
446,0.12608490096295635,0.12422548818956695,0.13104312674153246
447,0.12794379528065244,0.12596710263717031,0.13342872575354198
448,0.12991996384301713,0.12782228679930285,0.13591997766946926
449,0.1320166665418256,0.1297941466067698,0.13851677379560084
450,0.1342372977732249,0.1318859210260082,0.14121902691951627
451,0.13658538636675052,0.13410098262130618,0.14402668126361734
452,0.13906459484339534,0.13644283749657804,0.14693972318140908
453,0.1416787179589374,0.13891512457706395,0.1499581925357237
454,0.14443168048534458,0.14152161418776124,0.15308219467419482
455,0.14732753417965308,0.14426620588169992,0.15631191289977703
456,0.15037045388725473,0.14715292546843203,0.1596476213135607
457,0.15356473272379356,0.15018592118990304,0.16308969789470862
458,0.15691477627811595,0.15336945898874083,0.16663863766712123
459,0.16042509577722322,0.15670791681183982,0.1702950657949197
460,0.16410030015356644,0.16020577789091883,0.17405975044040414
461,0.16794508695472676,0.1638676229407578,0.17793361521495363
462,0.17196423203641148,0.1676981212156821,0.18191775105234345
463,0.17616257798131915,0.17170202036579257,0.18601342733443782
464,0.18054502118866841,0.1758841350354981,0.19022210210486393
465,0.18511649758302856,0.18024933414965777,0.1945454312108394
466,0.18988196689549325,0.18480252683590123,0.1989852762220918
467,0.19484639547610433,0.18954864693611373,0.20354371098577853
468,0.2000147376033175,0.19449263606577372,0.20822302668579323
469,0.20539191526469552,0.19963942518659175,0.21302573528766533
470,0.21098279639245116,0.2049939146658423,0.21795457126115636
471,0.21679217154833114,0.21056095280528006,0.22301249148537095
472,0.22282472906475564,0.21634531283310168,0.22820267325303753
473,0.2290850286623933,0.2223516683642154,0.23352851030130606
474,0.23557747357952175,0.22858456734781885,0.238993606808066
475,0.24230628126428663,0.2350484045351615,0.24460176930225977
476,0.2492754526986709,0.24174739251703323,0.25035699644594883
477,0.2564887404408276,0.24868553139673344,0.2562634666536259
478,0.2639496154922216,0.255866577182872,0.2623255235216536
479,0.27166123311541945,0.26329400900492267,0.26854765904804095
480,0.2796263977495676,0.27097099527454843,0.2749344946264439
481,0.28784752719096446,0.2789003589357571,0.2814907598056551
482,0.29632661622747825,0.28708454196775013,0.2882212688096987
483,0.3050651999361787,0.2955255693252579,0.29513089481797106
484,0.31406431687372993,0.30422501252127365,0.30222454201244653
485,0.32332447240875756,0.3131839530780166,0.3095071154011166
486,0.3328456024634031,0.3224029460906829,0.31698348843674673
487,0.3426270379479983,0.33188198416695114,0.3246584684561565
488,0.35266747018764916,0.3416204620220872,0.3325367599737229
489,0.3629649176518804,0.35161714202434746,0.34062292587520426
490,0.37351669430827455,0.3618701209975919,0.34892134657036156
491,0.38431937992796794,0.3723767985990039,0.35743617717514237
492,0.39536879267415065,0.3831338475957737,0.3661713028164871
493,0.40665996430490103,0.39413718636976364,0.3751302921655612
494,0.4181871183170391,0.4053819539781399,0.38431634933340925
495,0.4299436513503209,0.41686248809580967,0.3937322642825139
496,0.4419221181582737,0.4285723061568556,0.40338036193634547
497,0.45411422043549576,0.4405040900011723,0.4132624501962504
498,0.4665107997701506,0.45264967431586833,0.4233797671079927
499,0.4791018349646819,0.4650000391412499,0.43373292744701303
500,0.4918764439386974,0.47754530668606376,0.44432186902986326
501,0.5048228903931841,0.4902747426676267,0.45514579908966
502,0.5179285953791991,0.5031767623604128,0.466203141087139
503,0.5311801538721201,0.5162389414987549,0.4774914823640008
504,0.5445633564094753,0.5294480321403303,0.48900752307424716
505,0.5580632158043113,0.5427899835538862,0.5007470268620311
506,0.571663998897034,0.5562499681480751,0.5127047737795204
507,0.5853492632606225,0.5698124124123253,0.5248745159639628
508,0.5991018987233843,0.5834610327910382,0.5372489366094843
509,0.6129041735234693,0.5971788763623307,0.5498196127887451
510,0.6267377848612548,0.6109483661446188,0.5625769826802505
511,0.640583913567211,0.6247513508038802,0.5755103177657769
512,0.6544232825586699,0.6385691584881761,0.5886077005540917
513,0.6682362187161541,0.6523826544707285,0.601856008369673
514,0.682002717771502,0.6661723022398802,0.6152409037298975
515,0.6957025117660727,0.6799182276365364,0.6287468317980864
516,0.7093151386075564,0.6936002856040591,0.6423570253593619
517,0.7228200132295747,0.7071981290863065,0.6560535177232398
518,0.7361964998405618,0.7206912795846184,0.6698171638896858
519,0.7494239847347626,0.7340591988650689,0.6836276702576092
520,0.7624819491329136,0.7472813612945546,0.6974636330729894
521,0.7753500415193516,0.7603373262767315,0.7113025857377302
522,0.7880081489491527,0.7732068102581828,0.7251210550060039
523,0.8004364668108686,0.785869757780408,0.7388946260060331
524,0.8126155665489512,0.7983064110646209,0.7525980159243182
525,0.8245264608743991,0.8104973776342529,0.7662051560888847
526,0.8361506660204435,0.8224236955021793,0.7796892820895626
527,0.8474702606357469,0.8340668954796743,0.793023031466557
528,0.858467940944397,0.8454090601955069,0.8061785484057212
529,0.869127071845165,0.856432879452799,0.8191275947820116
530,0.8794317336667885,0.8671217015911901,0.8318416667987806
531,0.8893667643439017,0.8774595805674804,0.8442921164021776
532,0.8989177968268209,0.8874313185130294,0.856450276558452
533,0.908071291588532,0.8970225035766545,0.8682875894394763
534,0.9168145641423372,0.906219542909263,0.879775736497775
535,0.9251358075331808,0.9150096906978193,0.8908867693807402
536,0.9330241098142386,0.9233810712043863,0.9015932406095906
537,0.9404694665674197,0.9313226968156862,0.9118683329388743
538,0.9474627885710043,0.9388244811543018,0.9216859863174379
539,0.9539959047593304,0.9458772473480895,0.9310210213896297
540,0.9600615606581329,0.9524727315959465,0.9398492585145919
541,0.9656534125147551,0.9586035822071187,0.9481476313222499
542,0.9707660173730139,0.9642633543267453,0.9558942938927023
543,0.9753948193704635,0.9694465005920532,0.9630687207127685
544,0.9795361325578025,0.9741483579902519,0.9696517986485546
545,0.9831871205606355,0.9783651312148479,0.9756259102680481
546,0.9863457734154745,0.9820938728334389,0.9809750079428775
547,0.9890108819251072,0.9853324605975518,0.9856846782682578
548,0.9911820098813248,0.9880795722338174,0.9897421964466819
549,0.9928594645075404,0.9903346580636468,0.9931365703972268
550,0.9940442654694946,0.9920979117996629,0.995858574457214
551,0.9947381127984386,0.9933702398670615,0.9979007726624133
552,0.9949433540615048,0.9941532295923936,0.9992575316916595
553,0.9946629511016679,0.9944491165935224,0.9999250236684816
554,0.9939004466558208,0.9942607516941147,0.9999012191059566
555,0.9926599311414598,0.9935915676707271,0.9991858703756265
556,0.9909460098839439,0.9924455461249245,0.9977804861483305
557,0.9887637710345483,0.9908271847527111,0.9956882973433718
558,0.9861187544078752,0.9887414652650064,0.9929142151662831
559,0.9830169214426583,0.9861938221884398,0.9894647818755579
560,0.9794646264663166,0.9831901127544435,0.9853481149540149
561,0.975468589418173,0.9797365880594535,0.9805738453886995
562,0.9710358701610308,0.9758398656546212,0.9751530507818615
563,0.966173844485853,0.971506903698563,0.9690981840222487
564,0.9608901818887653,0.9667449767814161,0.9624229982444802
565,0.9551928251752233,0.9615616535035785,0.9551424687905009
566,0.949089971922653,0.9559647758686497,0.947272712872298
567,0.9425900578082935,0.9499624405249111,0.9388309075988174
568,0.9357017417887471,0.9435629818682277,0.9298352070084444
569,0.9284338930949761,0.9367749569957028,0.9203046586983107
570,0.9207955799870045,0.929607132478693,0.9102591206028966
571,0.9127960601947936,0.9220684729046361,0.899719178428651
572,0.9044447729533365,0.9141681311169597,0.8887060641951149
573,0.8957513325253815,0.9059154400667697,0.8772415762902687
574,0.8867255230899808,0.8973199061721326,0.8653480013876469
575,0.8773772948640287,0.888391204069122,0.8530480385266226
576,0.8677167613108383,0.8791391726226693,0.8403647256025069
577,0.8577541972829524,0.8695738120574235,0.8273213684677548
578,0.8475000379368369,0.8597052820569168,0.8139414727935922
579,0.8369648782519244,0.8495439006718325,0.8002486788029511
580,0.8261594729831964,0.8391001438735868,0.7862666989411351
581,0.8150947368719209,0.828384645582165,0.7720192585135272
582,0.8037817449404756,0.8174081979962878,0.7575300392880017
583,0.7922317326969058,0.8061817520523544,0.7428226260307883
584,0.7804560960777479,0.7947164178385611,0.7279204559164958
585,0.7684663909619073,0.7830234647930163,0.7128467707370095
586,0.7562743320940774,0.7711143215182233,0.6976245718118124
587,0.7438917912636408,0.7590005750502391,0.6822765774943357
588,0.7313307945939388,0.7466939694265875,0.6668251831591722
589,0.7186035188068151,0.7342064034062842,0.6512924235472065
590,0.7057222863395541,0.7215499272048693,0.6356999373478915
591,0.6926995592035032,0.708736738118034,0.6200689338980839
592,0.6795479314886862,0.6957791749207696,0.6044201618799898
593,0.6662801204333386,0.6826897109418075,0.5887738799085624
594,0.6529089559936201,0.6694809457284315,0.5731498289097771
595,0.6394473688657617,0.6561655952318753,0.5575672061964484
596,0.6259083769307676,0.6427564804613919,0.542044641166372
597,0.6123050701093735,0.6292665145700737,0.5266001725552548
598,0.5986505936344847,0.6157086883563092,0.5112512271945844
599,0.5849581297659746,0.6020960541806146,0.4960146002352823
600,0.5712408779921745,0.588441708317396,0.4809064368127548
601,0.557512033780683,0.5747587717792408,0.4659422151422598
602,0.54378476595928,0.5610603696705593,0.4511367310465652
603,0.5300721928251367,0.5473596091441768,0.43650408392690976
604,0.5163873570977127,0.5336695560538706,0.4220576642008717
605,0.502743199846231,0.5200032104113625,0.40781014223889805
606,0.4891525335373075,0.5063734807731055,0.3937734588374326
607,0.47562801436189855,0.492793157696932,0.37995881727351916
608,0.46218211401247156,0.4792748864227302,0.3663766769871942
609,0.4488270910915532,0.4658311389431337,0.35303674894093484
610,0.4355749623409597,0.45247418564106245,0.3399479927066494
611,0.4224374738883873,0.43921606668086,0.32711861532422454
612,0.409426072711186,0.42606856334491566,0.3145560719757997
613,0.39655187852136675,0.4130431695156966,0.3022670685120445
614,0.38382565627434784,0.4001510635034151,0.2902575658591902
615,0.3712577895037152,0.3874030804227291,0.278532786328626
616,0.35885825467954074,0.3748096853200534,0.26709722183660994
617,0.3466365967815029,0.3623809472495223,0.255954644035409
618,0.3346019062709905,0.3501265144913468,0.24510811634007335
619,0.3227627976348775,0.33805559109776695,0.2345600078260875
620,0.31112738966323794,0.3261769149436666,0.2243120089562104
621,0.2997032876080736,0.31449873744657314,0.21436514908466214
622,0.28849756735639936,0.3030288051087648,0.20471981567001873
623,0.27751676173355205,0.2917743430189608,0.1953757751173722
624,0.2667668490348768,0.2807420404352229,0.18633219515655103
625,0.25625324386592085,0.2699380385536686,0.17758766865027148
626,0.24598079035107898,0.2593679205491251,0.1691402387168106
627,0.23595375775128488,0.2490367039547043,0.16098742504016922
628,0.2261758385107917,0.23894883542763964,0.15312625123236767
629,0.2166501487332733,0.22910818792911744,0.14555327310510924
630,0.20737923106723885,0.21951806032492802,0.13826460770165835
631,0.19836505996140863,0.21018117939456946,0.13125596293619107
632,0.18960904923203625,0.201099704216568,0.12452266768371267
633,0.18111206186590617,0.19227523287857723,0.11805970216319349
634,0.17287442196634653,0.18370881144310078,0.11186172845690298
635,0.16489592873367828,0.17540094508197276,0.10592312101055298
636,0.1571758723576646,0.1673516112774414,0.10023799696180641
637,0.14971305168674204,0.1595602749724711,0.09480024615082815
638,0.142505793527911,0.1520259055400052,0.08960356067116683
639,0.1355519734220928,0.14474699542967873,0.08464146382759037
640,0.1288490377320949,0.1377215803402467,0.07990733837572198
641,0.12239402687493206,0.13094726075813043,0.07539445392721135
642,0.1161835995263331,0.1244212246964239,0.07109599341517907
643,0.11021405762331746,0.11814027146388154,0.0670050785244647
644,0.10448137199046201,0.11210083629114281,0.06311479400313212
645,0.0989812084169774,0.10629901564042754,0.05941821078291623
646,0.09370895401468146,0.10073059302575615,0.05590840784809318
647,0.08865974369156927,0.0953910651732464,0.05257849280395939
648,0.0838284865815587,0.0902756683551268,0.04942162110736159
649,0.07920989227820176,0.0853794047363924,0.04643101393385694
650,0.0747984967284041,0.08069706857983343,0.04359997466587437
651,0.07058868765141907,0.07622327216298543,0.04092190399776776
652,0.06657472935844527,0.07195247126944375,0.03839031366291148
653,0.062750786858848,0.06787899012675114,0.03599883879739842
654,0.05911094915017382,0.06399704567339298,0.03374124896340091
655,0.05564925160067081,0.06030077104851198,0.03161145786332044
656,0.05235969734474052,0.0567842382093413,0.0296035317821924
657,0.04923627762348917,0.053441479592788124,0.0277116968025995
658,0.046272991014270265,0.05026650874962822,0.025930344841398542
659,0.04346386150454124,0.047253339891075524,0.024254038562009476
660,0.04080295537654015,0.04439600629937099,0.022677515219954664
661,0.038284396880078,0.04168857756503271,0.021195689502031104
662,0.035902382680858935,0.039125175624317006,0.019803655421853562
663,0.03365119508157952,0.036699989580978934,0.018496687335809375
664,0.03152521402187651,0.03440728930597157,0.01727024014438989
665,0.02951892787172428,0.032241437818292355,0.016119948744019123
666,0.027626943040289162,0.030196902458367772,0.0150416267939294
667,0.025843992429236216,0.028268264873494264,0.014031264862110697
668,0.024164942765486117,0.026450229841741734,0.013085028012500489
669,0.022584800853739682,0.024737632967145408,0.012199252894305826
670,0.021098718793653375,0.02312544728455729,0.011370444391920163
671,0.019701998210307953,0.021608788817271685,0.010595271891635392
672,0.01839009354971347,0.02018292113464966,0.009870565218749832
673,0.017158614493447348,0.018843258960207353,0.009193310295759878
674,0.016003327548256684,0.017585370883325117,0.008560644569461526
675,0.014920156867526095,0.01640498122954656,0.007969852251710942
676,0.013905184362070782,0.01529797114588229,0.007418359415430459
677,0.01295464915767801,0.01426037895814359,0.006903728984447085
678,0.012064946456349819,0.013288399857561823,0.0064236556524849735
679,0.011232625857283534,0.012378384973592976,0.005975960763678066
680,0.01045438919233277,0.011526839889089495,0.005558587183909397
681,0.009727087929060803,0.010730422652802912,0.005169594189389259
682,0.009047720192601732,0.009985941342734905,0.0048071523960235155
683,0.008413427455381354,0.009290351231979284,0.004469538750525679
684,0.007821490941435333,0.00864075160670867,0.004155131601528479
685,0.00726932778955414,0.008034382283644661,0.0038624058667042094
686,0.006754487016906722,0.007468619871954115,0.003589928309434182
687,0.006274645322105224,0.006940973821945044,0.0033363529366416227
688,0.005827602763971314,0.006449082300306551,0.0031004165272542337
689,0.005411278349531975,0.005990707928943286,0.002880934299085942
690,0.005023705562071701,0.005563733421749913,0.0026767957201673624
691,0.004663027857388483,0.005166157150954645,0.002486960469072789
692,0.004327494153794751,0.004796088671996024,0.0023104545474018604
693,0.004015454338873935,0.004451744233276287,0.0021463665463527645
694,0.003725354813553847,0.004131442294571461,0.0019938440681629174
695,0.003455734091732224,0.003833599075433735,0.0018520903022848623
696,0.003205218471454839,0.003556724152545368,0.0017203607552167528
697,0.002972517791552214,0.0032994161227273945,0.001597960132213214
698,0.002756421285661329,0.0030603583461838854,0.0014842393684159959
699,0.0025557935437109163,0.0028383147825394197,0.0013785928063914812
700,0.002369570589234034,0.0026321259303456637,0.0012804555165986053
701,0.002196756079281391,0.0024407048789804823,0.0011893007569138765
702,0.002036417632256678,0.0022630334802384855,0.0011046375670338963
703,0.0018876832876594568,0.002098158645414541,0.0010260084933093891
704,0.0017497381005156206,0.001945188772312176,0.000952987439394798
705,0.001621820872183884,0.0018032903053658764,0.0008851776379610516
